#Daya Bay Reactor Antineutrino Experiment, November, 2015
#----------------------------------------------------------------

#Omega_rd in Equation 3:
r=0, …, 5
Omega_1r: 0.337, 0.456, 0.066, 0.082, 0.033 0.026
Omega_2r: 0.339, 0.457, 0.065, 0.081, 0.032, 0.026
Omega_3r: 0.028, 0.038, 0.275, 0.256, 0.214, 0.189
Omega_4r: 0.101, 0.148, 0.194, 0.197, 0.209, 0.151
Omega_5r: 0.101, 0.149, 0.194, 0.197, 0.208, 0.151
Omega_6r: 0.101, 0.148, 0.193, 0.197, 0.209, 0.151
#----------------------------------------------------------------

#Target proton numbers of the Antineutrino Detectors (AD).
#Detector   Target_Mass(kg)   Proton_Number
AD1 19941   1.430E30
AD2 19966   1.431E30
AD3 19891   1.426E30
#----------------------------------------------------------------

#Average fission fractions:
235U : 238U : 239Pu : 241Pu = 0.586 : 0.076 : 0.288 : 0.050

#Covariance matrix of the average fractions:
235U 238U 239Pu 241Pu
235U 0.000829918 -2.38021e-05 -0.00020698 -1.00388e-05 
238U -2.38021e-05 1.44338e-05 9.39148e-06 2.3835e-06 
239Pu -0.00020698 9.39148e-06 0.000197953 1.61046e-05 
241Pu -1.00388e-05 2.3835e-06 1.61046e-05 6.12023e-06 
#----------------------------------------------------------------

#Extracted Reactor antineutrino spectrum:
#The spectrum is extracted from measured IBD prompt spectrum using SVD regularization method. The regularization parameters is 13, the effective number of degrees of freedom is 13.72 
#Energy Bin Center (MeV):1.9625, 2.25, 2.5, 2.75, 3, 3.25, 3.5, 3.75, 4, 4.25, 4.5, 4.75, 5, 5.25, 5.5, 5.75, 6, 6.25, 6.5, 6.75, 7, 7.25, 7.5 7.75, 8, 10.0625
# Energy Bin Edges (MeV):1.8, 2.125, 2.375, 2.625, 2.875, 3.125, 3.375, 3.625, 3.875, 4.125, 4.375, 4.625, 4.875, 5.125, 5.375, 5.625, 5.875, 6.125, 6.375, 6.625, 6.875, 7.125, 7.375, 7.625, 7.875, 8.125, 12

#Energy(MeV) cm^2/fission/MeV
1.9625 3.44477e-44
2.25 7.748e-44
2.5 1.08281e-43
2.75 1.34919e-43
3 1.52351e-43
3.25 1.68423e-43
3.5 1.76122e-43
3.75 1.76904e-43
4 1.72415e-43
4.25 1.62089e-43
4.5 1.47522e-43
4.75 1.32759e-43
5 1.22081e-43
5.25 1.119e-43
5.5 9.83514e-44
5.75 8.60577e-44
6 7.22494e-44
6.25 5.78167e-44
6.5 4.63257e-44
6.75 3.68153e-44
7 2.74854e-44
7.25 1.90475e-44
7.5 1.31815e-44
7.75 9.0916e-45
8 5.54075e-45
10.0625 3.89108e-46

#Covariance matrix of the extracted reactor antineutrino spectrum:
# unit of the element: (cm^2/fission/MeV)^2
#Energy Bin Center (MeV):1.9625, 2.25, 2.5, 2.75, 3, 3.25, 3.5, 3.75, 4, 4.25, 4.5, 4.75, 5, 5.25, 5.5, 5.75, 6, 6.25, 6.5, 6.75, 7, 7.25, 7.5 7.75, 8, 10.0625
#Energy Bin Edge(MeV):1.8, 2.125, 2.375, 2.625, 2.875, 3.125, 3.375, 3.625, 3.875, 4.125, 4.375, 4.625, 4.875, 5.125, 5.375, 5.625, 5.875, 6.125, 6.375, 6.625, 6.875, 7.125, 7.375, 7.625, 7.875, 8.125, 12


1.12935e-89 1.38451e-89 1.23754e-89 1.26386e-89 1.17868e-89 1.16491e-89 1.01234e-89 7.55673e-90 6.31439e-90 4.20683e-90 2.49898e-90 1.30914e-90 1.0637e-90 4.48463e-91 -5.40154e-91 -1.37763e-90 -1.66011e-90 -1.40231e-90 -1.53199e-90 -2.02983e-90 -2.27809e-90 -2.09576e-90 -1.765e-90 -1.39067e-90 -9.01376e-91 -6.40305e-92 
1.38451e-89 3.30822e-89 2.34365e-89 2.39204e-89 2.26647e-89 2.28795e-89 2.03684e-89 1.60739e-89 1.39232e-89 1.0304e-89 7.2649e-90 5.02055e-90 4.38976e-90 3.34292e-90 1.58789e-90 2.29619e-92 -7.18598e-91 -6.44317e-91 -1.06825e-90 -2.00219e-90 -2.57092e-90 -2.49107e-90 -2.14673e-90 -1.72347e-90 -1.14126e-90 -8.30564e-92 
1.23754e-89 2.34365e-89 2.75604e-89 2.97493e-89 2.92771e-89 3.03827e-89 2.82179e-89 2.35868e-89 2.07159e-89 1.63629e-89 1.23483e-89 9.22874e-90 8.11256e-90 6.64039e-90 4.34664e-90 2.27271e-90 1.06971e-90 7.56759e-91 4.90554e-92 -1.11467e-90 -1.88389e-90 -1.97175e-90 -1.74257e-90 -1.42103e-90 -9.59599e-91 -7.15205e-92 
1.26386e-89 2.39204e-89 2.97493e-89 3.59018e-89 3.62396e-89 3.74991e-89 3.57367e-89 3.08787e-89 2.72183e-89 2.20008e-89 1.69061e-89 1.28874e-89 1.12951e-89 9.22646e-90 6.27159e-90 3.63866e-90 2.00046e-90 1.41203e-90 4.39697e-91 -1.00242e-90 -1.95997e-90 -2.11927e-90 -1.89022e-90 -1.54252e-90 -1.03961e-90 -7.73081e-92 
1.17868e-89 2.26647e-89 2.92771e-89 3.62396e-89 4.00667e-89 4.12587e-89 3.94094e-89 3.5127e-89 3.15077e-89 2.61729e-89 2.06851e-89 1.62704e-89 1.43563e-89 1.19551e-89 8.63866e-90 5.6738e-90 3.65349e-90 2.67858e-90 1.42608e-90 -2.26883e-91 -1.38389e-90 -1.72654e-90 -1.62281e-90 -1.3573e-90 -9.24407e-91 -6.89787e-92 
1.16491e-89 2.28795e-89 3.03827e-89 3.74991e-89 4.12587e-89 4.58608e-89 4.34638e-89 3.83903e-89 3.47711e-89 2.95414e-89 2.37033e-89 1.89106e-89 1.67836e-89 1.41528e-89 1.05311e-89 7.31008e-90 5.0124e-90 3.74983e-90 2.26695e-90 4.31019e-91 -8.9121e-91 -1.37925e-90 -1.37948e-90 -1.19169e-90 -8.27212e-91 -6.24501e-92 
1.01234e-89 2.03684e-89 2.82179e-89 3.57367e-89 3.94094e-89 4.34638e-89 4.52407e-89 4.03338e-89 3.6146e-89 3.15769e-89 2.63289e-89 2.16618e-89 1.93219e-89 1.66164e-89 1.29803e-89 9.71135e-90 7.15403e-90 5.46058e-90 3.70695e-90 1.74879e-90 2.57099e-91 -4.83986e-91 -7.12736e-91 -7.14209e-91 -5.36019e-91 -4.24303e-92 
7.55673e-90 1.60739e-89 2.35868e-89 3.08787e-89 3.5127e-89 3.83903e-89 4.03338e-89 4.06478e-89 3.65491e-89 3.22237e-89 2.80284e-89 2.42237e-89 2.1842e-89 1.92556e-89 1.59211e-89 1.28971e-89 1.01622e-89 7.90955e-90 5.88129e-90 3.90527e-90 2.2437e-90 1.11507e-90 5.13248e-91 2.059e-91 6.3281e-92 1.8402e-93 
6.31439e-90 1.39232e-89 2.07159e-89 2.72183e-89 3.15077e-89 3.47711e-89 3.6146e-89 3.65491e-89 3.64977e-89 3.22613e-89 2.78785e-89 2.4573e-89 2.25592e-89 2.0223e-89 1.71478e-89 1.43997e-89 1.16918e-89 9.19862e-90 7.0757e-90 5.15059e-90 3.42929e-90 2.08992e-90 1.2751e-90 7.96813e-91 4.71447e-91 3.41676e-92 
4.20683e-90 1.0304e-89 1.63629e-89 2.20008e-89 2.61729e-89 2.95414e-89 3.15769e-89 3.22237e-89 3.22613e-89 3.20925e-89 2.8023e-89 2.45672e-89 2.25962e-89 2.07694e-89 1.81818e-89 1.57798e-89 1.31346e-89 1.04271e-89 8.26373e-90 6.46639e-90 4.73595e-90 3.19353e-90 2.15101e-90 1.47945e-90 9.40329e-91 7.0936e-92 
2.49898e-90 7.2649e-90 1.23483e-89 1.69061e-89 2.06851e-89 2.37033e-89 2.63289e-89 2.80284e-89 2.78785e-89 2.8023e-89 2.75134e-89 2.43042e-89 2.18395e-89 2.02469e-89 1.83493e-89 1.64394e-89 1.3933e-89 1.11187e-89 9.01432e-90 7.41207e-90 5.73669e-90 4.06434e-90 2.85516e-90 2.0366e-90 1.3253e-90 1.01081e-91 
1.30914e-90 5.02055e-90 9.22874e-90 1.28874e-89 1.62704e-89 1.89106e-89 2.16618e-89 2.42237e-89 2.4573e-89 2.45672e-89 2.43042e-89 2.37651e-89 2.12013e-89 1.93479e-89 1.76968e-89 1.6285e-89 1.40658e-89 1.12768e-89 9.25422e-90 7.82364e-90 6.24242e-90 4.54173e-90 3.26094e-90 2.36679e-90 1.55522e-90 1.19006e-91 
1.0637e-90 4.38976e-90 8.11256e-90 1.12951e-89 1.43563e-89 1.67836e-89 1.93219e-89 2.1842e-89 2.25592e-89 2.25962e-89 2.18395e-89 2.12013e-89 2.0506e-89 1.85433e-89 1.66215e-89 1.52215e-89 1.32769e-89 1.07215e-89 8.83062e-90 7.50248e-90 6.02292e-90 4.40741e-90 3.18128e-90 2.32433e-90 1.54059e-90 1.18914e-91 
4.48463e-91 3.34292e-90 6.64039e-90 9.22646e-90 1.19551e-89 1.41528e-89 1.66164e-89 1.92556e-89 2.0223e-89 2.07694e-89 2.02469e-89 1.93479e-89 1.85433e-89 1.8211e-89 1.63607e-89 1.48282e-89 1.28625e-89 1.04427e-89 8.73088e-90 7.55561e-90 6.15401e-90 4.55126e-90 3.31697e-90 2.4528e-90 1.64787e-90 1.28766e-91 
-5.40154e-91 1.58789e-90 4.34664e-90 6.27159e-90 8.63866e-90 1.05311e-89 1.29803e-89 1.59211e-89 1.71478e-89 1.81818e-89 1.83493e-89 1.76968e-89 1.66215e-89 1.63607e-89 1.59819e-89 1.4632e-89 1.26115e-89 1.01485e-89 8.60501e-90 7.66582e-90 6.3958e-90 4.8094e-90 3.5522e-90 2.66114e-90 1.80739e-90 1.42332e-91 
-1.37763e-90 2.29619e-92 2.27271e-90 3.63866e-90 5.6738e-90 7.31008e-90 9.71135e-90 1.28971e-89 1.43997e-89 1.57798e-89 1.64394e-89 1.6285e-89 1.52215e-89 1.48282e-89 1.4632e-89 1.4446e-89 1.25645e-89 1.0024e-89 8.48912e-90 7.7206e-90 6.59617e-90 5.05066e-90 3.78068e-90 2.8638e-90 1.96124e-90 1.55279e-91 
-1.66011e-90 -7.18598e-91 1.06971e-90 2.00046e-90 3.65349e-90 5.0124e-90 7.15403e-90 1.01622e-89 1.16918e-89 1.31346e-89 1.3933e-89 1.40658e-89 1.32769e-89 1.28625e-89 1.26115e-89 1.25645e-89 1.15926e-89 9.27001e-90 7.80873e-90 7.10121e-90 6.12549e-90 4.74863e-90 3.59418e-90 2.74873e-90 1.89795e-90 1.51229e-91 
-1.40231e-90 -6.44317e-91 7.56759e-91 1.41203e-90 2.67858e-90 3.74983e-90 5.46058e-90 7.90955e-90 9.19862e-90 1.04271e-89 1.11187e-89 1.12768e-89 1.07215e-89 1.04427e-89 1.01485e-89 1.0024e-89 9.27001e-90 1.30438e-89 6.56097e-90 5.92311e-90 5.06535e-90 3.92086e-90 2.98414e-90 2.31231e-90 1.6278e-90 1.3225e-91 
-1.53199e-90 -1.06825e-90 4.90554e-92 4.39697e-91 1.42608e-90 2.26695e-90 3.70695e-90 5.88129e-90 7.0757e-90 8.26373e-90 9.01432e-90 9.25422e-90 8.83062e-90 8.73088e-90 8.60501e-90 8.48912e-90 7.80873e-90 6.56097e-90 9.21625e-90 5.34365e-90 4.57573e-90 3.52072e-90 2.68566e-90 2.12331e-90 1.54572e-90 1.2976e-91 
-2.02983e-90 -2.00219e-90 -1.11467e-90 -1.00242e-90 -2.26883e-91 4.31019e-91 1.74879e-90 3.90527e-90 5.15059e-90 6.46639e-90 7.41207e-90 7.82364e-90 7.50248e-90 7.55561e-90 7.66582e-90 7.7206e-90 7.10121e-90 5.92311e-90 5.34365e-90 7.32339e-90 4.53466e-90 3.518e-90 2.6904e-90 2.14358e-90 1.5792e-90 1.3396e-91 
-2.27809e-90 -2.57092e-90 -1.88389e-90 -1.95997e-90 -1.38389e-90 -8.9121e-91 2.57099e-91 2.2437e-90 3.42929e-90 4.73595e-90 5.73669e-90 6.24242e-90 6.02292e-90 6.15401e-90 6.3958e-90 6.59617e-90 6.12549e-90 5.06535e-90 4.57573e-90 4.53466e-90 5.33446e-90 3.28438e-90 2.5309e-90 1.97766e-90 1.3969e-90 1.13337e-91 
-2.09576e-90 -2.49107e-90 -1.97175e-90 -2.11927e-90 -1.72654e-90 -1.37925e-90 -4.83986e-91 1.11507e-90 2.08992e-90 3.19353e-90 4.06434e-90 4.54173e-90 4.40741e-90 4.55126e-90 4.8094e-90 5.05066e-90 4.74863e-90 3.92086e-90 3.52072e-90 3.518e-90 3.28438e-90 3.28411e-90 2.11616e-90 1.60078e-90 1.0382e-90 7.58289e-92 
-1.765e-90 -2.14673e-90 -1.74257e-90 -1.89022e-90 -1.62281e-90 -1.37948e-90 -7.12736e-91 5.13248e-91 1.2751e-90 2.15101e-90 2.85516e-90 3.26094e-90 3.18128e-90 3.31697e-90 3.5522e-90 3.78068e-90 3.59418e-90 2.98414e-90 2.68566e-90 2.6904e-90 2.5309e-90 2.11616e-90 1.9625e-90 1.28412e-90 8.28646e-91 5.9794e-92 
-1.39067e-90 -1.72347e-90 -1.42103e-90 -1.54252e-90 -1.3573e-90 -1.19169e-90 -7.14209e-91 2.059e-91 7.96813e-91 1.47945e-90 2.0366e-90 2.36679e-90 2.32433e-90 2.4528e-90 2.66114e-90 2.8638e-90 2.74873e-90 2.31231e-90 2.12331e-90 2.14358e-90 1.97766e-90 1.60078e-90 1.28412e-90 2.95612e-90 8.76843e-91 7.97141e-92 
-9.01376e-91 -1.14126e-90 -9.59599e-91 -1.03961e-90 -9.24407e-91 -8.27212e-91 -5.36019e-91 6.3281e-92 4.71447e-91 9.40329e-91 1.3253e-90 1.55522e-90 1.54059e-90 1.64787e-90 1.80739e-90 1.96124e-90 1.89795e-90 1.6278e-90 1.54572e-90 1.5792e-90 1.3969e-90 1.0382e-90 8.28646e-91 8.76843e-91 1.626e-90 1.03712e-91 
-6.40305e-92 -8.30564e-92 -7.15205e-92 -7.73081e-92 -6.89787e-92 -6.24501e-92 -4.24303e-92 1.8402e-93 3.41676e-92 7.0936e-92 1.01081e-91 1.19006e-91 1.18914e-91 1.28766e-91 1.42332e-91 1.55279e-91 1.51229e-91 1.3225e-91 1.2976e-91 1.3396e-91 1.13337e-91 7.58289e-92 5.9794e-92 7.97141e-92 1.03712e-91 3.68558e-92
